number of tabulated points
#
     178
REAL= 420 IMAGINARY= 420 SUBSTANCE= Water SAMPLEFORM= Liquid
TEMPERATURE= 300 K CONCENTRATION= 100.0% WAVENUMBERRANGE= 10 to 5000 cm-1
WAVENUMBERERROR= Unspecified
REFERENCE= H. D. Downing and D. Williams, Optical constants of water in the
infrared, J. Geophys. Res., vol. 80, pgs. 1656-1661, 1975. CONTACT=
COMMENT= Data from HITRAN
Wavenumber (micron), Real, Imaginary, Wavenumber (cm-1)
#
      4.09836      1.34400   0.00568000      2440.00
      4.11523      1.34400   0.00586000      2430.00
      4.13223      1.34300   0.00608000      2420.00
      4.14938      1.34200   0.00631000      2410.00
      4.16667      1.34100   0.00653000      2400.00
      4.18410      1.34000   0.00673000      2390.00
      4.20168      1.34000   0.00696000      2380.00
      4.21941      1.33800   0.00722000      2370.00
      4.23729      1.33700   0.00749000      2360.00
      4.25532      1.33700   0.00779000      2350.00
      4.27350      1.33500   0.00806000      2340.00
      4.29185      1.33400   0.00833000      2330.00
      4.31034      1.33400   0.00864000      2320.00
      4.32900      1.33300   0.00896000      2310.00
      4.34783      1.33200   0.00927000      2300.00
      4.36681      1.33200   0.00966000      2290.00
      4.38596      1.33100   0.01000000      2280.00
      4.40529      1.33000    0.0104000      2270.00
      4.42478      1.33000    0.0108000      2260.00
      4.44444      1.33000    0.0112000      2250.00
      4.46429      1.32900    0.0117000      2240.00
      4.48430      1.32900    0.0122000      2230.00
      4.50450      1.32900    0.0126000      2220.00
      4.52489      1.32800    0.0131000      2210.00
      4.54545      1.32800    0.0136000      2200.00
      4.56621      1.32700    0.0140000      2190.00
      4.58716      1.32700    0.0145000      2180.00
      4.60829      1.32700    0.0149000      2170.00
      4.62963      1.32700    0.0152000      2160.00
      4.65116      1.32700    0.0154000      2150.00
      4.67290      1.32600    0.0156000      2140.00
      4.69484      1.32600    0.0157000      2130.00
      4.71698      1.32600    0.0157000      2120.00
      4.73934      1.32500    0.0157000      2110.00
      4.76190      1.32500    0.0155000      2100.00
      4.78469      1.32500    0.0153000      2090.00
      4.80769      1.32500    0.0151000      2080.00
      4.83092      1.32500    0.0148000      2070.00
      4.85437      1.32500    0.0146000      2060.00
      4.87805      1.32400    0.0143000      2050.00
      4.90196      1.32400    0.0140000      2040.00
      4.92611      1.32300    0.0137000      2030.00
      4.95050      1.32200    0.0133000      2020.00
      4.97512      1.32200    0.0129000      2010.00
      5.00000      1.32100    0.0126000      2000.00
      5.02513      1.32000    0.0122000      1990.00
      5.05051      1.31900    0.0118000      1980.00
      5.07614      1.31800    0.0115000      1970.00
      5.10204      1.31800    0.0110000      1960.00
      5.12821      1.31700    0.0108000      1950.00
      5.15464      1.31600    0.0105000      1940.00
      5.18135      1.31400    0.0103000      1930.00
      5.20833      1.31300    0.0101000      1920.00
      5.23560      1.31100   0.01000000      1910.00
      5.26316      1.31000   0.00993000      1900.00
      5.29101      1.30800   0.00990000      1890.00
      5.31915      1.30600   0.00995000      1880.00
      5.34759      1.30400   0.01000000      1870.00
      5.37634      1.30200    0.0102000      1860.00
      5.40541      1.29900    0.0104000      1850.00
      5.43478      1.29700    0.0107000      1840.00
      5.46448      1.29400    0.0110000      1830.00
      5.49451      1.29100    0.0115000      1820.00
      5.52486      1.28800    0.0120000      1810.00
      5.55556      1.28500    0.0128000      1800.00
      5.58659      1.28200    0.0138000      1790.00
      5.61798      1.27800    0.0150000      1780.00
      5.64972      1.27500    0.0166000      1770.00
      5.68182      1.27100    0.0185000      1760.00
      5.71429      1.26700    0.0205000      1750.00
      5.74713      1.26200    0.0242000      1740.00
      5.78035      1.25600    0.0293000      1730.00
      5.81395      1.25100    0.0332000      1720.00
      5.84795      1.24700    0.0429000      1710.00
      5.88235      1.24200    0.0544000      1700.00
      5.91716      1.24100    0.0688000      1690.00
      5.95238      1.24100    0.0840000      1680.00
      5.98802      1.24700     0.102100      1670.00
      6.02410      1.26500     0.117000      1660.00
      6.06061      1.28900     0.130000      1650.00
      6.09756      1.31100     0.132000      1640.00
      6.13497      1.33200     0.124000      1630.00
      6.17284      1.34900     0.106000      1620.00
      6.21118      1.35400    0.0880000      1610.00
      6.25000      1.35600    0.0740000      1600.00
      6.28931      1.35400    0.0618000      1590.00
      6.32911      1.35000    0.0535000      1580.00
      6.36943      1.34500    0.0484000      1570.00
      6.41026      1.34100    0.0447000      1560.00
      6.45161      1.33700    0.0420000      1550.00
      6.49351      1.33300    0.0398000      1540.00
      6.53595      1.33000    0.0383000      1530.00
      6.57895      1.32600    0.0373000      1520.00
      6.62252      1.32400    0.0370000      1510.00
      6.66667      1.32200    0.0366000      1500.00
      6.71141      1.32000    0.0363000      1490.00
      6.75676      1.31900    0.0360000      1480.00
      6.80272      1.31800    0.0357000      1470.00
      6.84932      1.31700    0.0355000      1460.00
      6.89655      1.31600    0.0352000      1450.00
      6.94444      1.31500    0.0350000      1440.00
      6.99301      1.31400    0.0347000      1430.00
      7.04225      1.31300    0.0346000      1420.00
      7.09220      1.31100    0.0343000      1410.00
      7.14286      1.31000    0.0342000      1400.00
      7.19424      1.30900    0.0342000      1390.00
      7.24638      1.30800    0.0342000      1380.00
      7.29927      1.30700    0.0343000      1370.00
      7.35294      1.30600    0.0342000      1360.00
      7.40741      1.30500    0.0342000      1350.00
      7.46269      1.30300    0.0342000      1340.00
      7.51880      1.30200    0.0342000      1330.00
      7.57576      1.30100    0.0342000      1320.00
      7.63359      1.30000    0.0344000      1310.00
      7.69231      1.29800    0.0345000      1300.00
      7.75194      1.29600    0.0346000      1290.00
      7.81250      1.29500    0.0349000      1280.00
      7.87402      1.29400    0.0351000      1270.00
      7.93651      1.29300    0.0351000      1260.00
      8.00000      1.29100    0.0351000      1250.00
      8.06452      1.28800    0.0352000      1240.00
      8.13008      1.28600    0.0356000      1230.00
      8.19672      1.28500    0.0359000      1220.00
      8.26446      1.28300    0.0361000      1210.00
      8.33333      1.28100    0.0362000      1200.00
      8.40336      1.27900    0.0366000      1190.00
      8.47458      1.27600    0.0370000      1180.00
      8.54701      1.27400    0.0374000      1170.00
      8.62069      1.27100    0.0378000      1160.00
      8.69565      1.26900    0.0383000      1150.00
      8.77193      1.26700    0.0387000      1140.00
      8.84956      1.26400    0.0392000      1130.00
      8.92857      1.26100    0.0398000      1120.00
      9.00901      1.25900    0.0405000      1110.00
      9.09091      1.25600    0.0411000      1100.00
      9.17431      1.25300    0.0417000      1090.00
      9.25926      1.24900    0.0424000      1080.00
      9.34579      1.24600    0.0434000      1070.00
      9.43396      1.24200    0.0443000      1060.00
      9.52381      1.23800    0.0453000      1050.00
      9.61539      1.23400    0.0467000      1040.00
      9.70874      1.23000    0.0481000      1030.00
      9.80392      1.22400    0.0497000      1020.00
      9.90099      1.22000    0.0515000      1010.00
      10.0000      1.21400    0.0534000      1000.00
      10.1010      1.20800    0.0557000      990.000
      10.2041      1.20200    0.0589000      980.000
      10.3093      1.19400    0.0622000      970.000
      10.4167      1.18900    0.0661000      960.000
      10.5263      1.18100    0.0707000      950.000
      10.6383      1.17400    0.0764000      940.000
      10.7527      1.16800    0.0828000      930.000
      10.8696      1.16200    0.0898000      920.000
      10.9890      1.15600    0.0973000      910.000
      11.1111      1.14900     0.107000      900.000
      11.2360      1.14300     0.118000      890.000
      11.3636      1.13900     0.130000      880.000
      11.4943      1.13500     0.144000      870.000
      11.6279      1.13200     0.159000      860.000
      11.7647      1.13200     0.176000      850.000
      11.9048      1.13100     0.192000      840.000
      12.0482      1.13200     0.208000      830.000
      12.1951      1.13000     0.226000      820.000
      12.3457      1.13000     0.243000      810.000
      12.5000      1.13400     0.260000      800.000
      12.6582      1.13800     0.277000      790.000
      12.8205      1.14200     0.292000      780.000
      12.9870      1.15700     0.305000      770.000
      13.1579      1.17100     0.317000      760.000
      13.3333      1.18200     0.328000      750.000
      13.5135      1.18900     0.338000      740.000
      13.6986      1.20100     0.347000      730.000
      13.8889      1.21300     0.356000      720.000
      14.0845      1.22300     0.365000      710.000
      14.2857      1.23600     0.373000      700.000
      14.4928      1.24900     0.379000      690.000
      14.7059      1.26400     0.386000      680.000
      14.9254      1.27700     0.392000      670.000
number of tabulated points
#
      53
REAL= 173 IMAGINARY= 173 SUBSTANCE= Water Ice SAMPLEFORM= Thin Film
TEMPERATURE= 163 K CONCENTRATION= WAVENUMBERRANGE= 482 - 6962 cm-1
WAVENUMBERERROR= Unspecified
REFERENCE= O. B. Toon, M. A. Tolbert, B. G. Koehler, A. M. Middlebrook, and
J. Jordan, The infrared optical constants of H2O-ice, amorphous acid
solutions, and nitric acid hydrates, J. Geophys. Res., 99, 25631 - 25654,
1994. CONTACT= Unknown
COMMENT= Derived from 11 spectroscopic measurements of thin crystaline films.
Wavenumber (micron), Real, Imaginary, Wavenumber (cm-1)
#
      4.08330      1.36600    0.0156000      2449.00
      4.14766      1.36200    0.0177000      2411.00
      4.21585      1.35800    0.0202000      2372.00
      4.28633      1.35500    0.0240000      2333.00
      4.35730      1.35400    0.0288000      2295.00
      4.43262      1.35600    0.0327000      2256.00
      4.46229      1.35800    0.0333000      2241.00
      4.50857      1.36100    0.0324000      2218.00
      4.58926      1.36300    0.0278000      2179.00
      4.67071      1.36200    0.0220000      2141.00
      4.75737      1.35800    0.0172000      2102.00
      4.84731      1.35400    0.0140000      2063.00
      4.93827      1.34800    0.0120000      2025.00
      5.03525      1.34100    0.0112000      1986.00
      5.13347      1.33500    0.0117000      1948.00
      5.23834      1.32800    0.0138000      1909.00
      5.34474      1.32200    0.0173000      1871.00
      5.45852      1.31700    0.0216000      1832.00
      5.57724      1.31100    0.0269000      1793.00
      5.69801      1.30600    0.0340000      1755.00
      5.82751      1.30300    0.0447000      1716.00
      5.95948      1.30500    0.0574000      1678.00
      6.10128      1.31400    0.0665000      1639.00
      6.24610      1.32300    0.0690000      1601.00
      6.40205      1.32900    0.0689000      1562.00
      6.56599      1.33500    0.0678000      1523.00
      6.73401      1.34000    0.0646000      1485.00
      6.91563      1.34300    0.0598000      1446.00
      7.10227      1.34400    0.0536000      1408.00
      7.30460      1.34200    0.0471000      1369.00
      7.51315      1.33700    0.0417000      1331.00
      7.73994      1.33000    0.0388000      1292.00
      7.97448      1.32300    0.0375000      1254.00
      8.23045      1.31600    0.0364000      1215.00
      8.50340      1.30700    0.0353000      1176.00
      8.78735      1.29600    0.0349000      1138.00
      8.96861      1.29000    0.0343000      1115.00
      9.09918      1.28500    0.0322000      1099.00
      9.46074      1.25400    0.0183000      1057.00
      9.56938      1.23900    0.0195000      1045.00
      9.78474      1.20800    0.0273000      1022.00
      10.1626      1.13900    0.0611000      984.000
      10.5820      1.06700     0.184000      945.000
      10.7527      1.07600     0.258000      930.000
      11.0375      1.13100     0.352000      906.000
      11.5207      1.25700     0.433000      868.000
      11.8906      1.36300     0.462000      841.000
      12.0627      1.41300     0.465000      829.000
      12.3457      1.50300     0.433000      810.000
      12.6422      1.56800     0.369000      791.000
      13.2979      1.61200     0.245000      752.000
      14.0056      1.59200     0.155000      714.000
      14.8148      1.56700     0.102000      675.000
